Potential applied (V);Time (s);WE(1).Current (A);Scan;Index;Q+;Q-;Current range
0,010070801;1,545479996;-0,000265045;1;1;0,005809117;-0,005269692;1 mA
0,020141602;1,646187996;-0,000240021;1;2;0,005809117;-0,005269692;1 mA
0,030212402;1,746895996;-0,000217682;1;3;0,005809117;-0,005269692;1 mA
0,040283203;1,847603995;-0,000197388;1;4;0,005809117;-0,005269692;1 mA
0,050354004;1,948311995;-0,000178406;1;5;0,005809117;-0,005269692;1 mA
0,060424805;2,049019995;-0,000160553;1;6;0,005809117;-0,005269692;1 mA
0,070495605;2,149727995;-0,000143555;1;7;0,005809117;-0,005269692;1 mA
0,080566406;2,250435994;-0,000127197;1;8;0,005809117;-0,005269692;1 mA
0,090637207;2,351143994;-0,000111237;1;9;0,005809117;-0,005269692;1 mA
0,100708008;2,451851994;-9,56E-05;1;10;0,005809117;-0,005269692;1 mA
0,110778809;2,552559994;-8,03E-05;1;11;0,005809117;-0,005269692;1 mA
0,120849609;2,653267993;-6,52E-05;1;12;0,005809117;-0,005269692;1 mA
0,13092041;2,753975993;-5,00E-05;1;13;0,005809117;-0,005269692;1 mA
0,140991211;2,854683993;-3,48E-05;1;14;0,005809117;-0,005269692;1 mA
0,151062012;2,955391993;-1,98E-05;1;15;0,005809117;-0,005269692;100 µA
0,161132813;3,056099992;-4,79E-06;1;16;0,005809117;-0,005269692;100 µA
0,171203613;3,156807992;1,03E-05;1;17;0,005809117;-0,005269692;100 µA
0,181274414;3,257515992;2,55E-05;1;18;0,005809117;-0,005269692;100 µA
0,191345215;3,358223992;4,09E-05;1;19;0,005809117;-0,005269692;100 µA
0,201416016;3,458931991;5,64E-05;1;20;0,005809117;-0,005269692;100 µA
0,211486816;3,559639991;7,23E-05;1;21;0,005809117;-0,005269692;100 µA
0,221557617;3,660347991;8,86E-05;1;22;0,005809117;-0,005269692;100 µA
0,231628418;3,761055991;0,000105255;1;23;0,005809117;-0,005269692;100 µA
0,241699219;3,86176399;0,000122528;1;24;0,005809117;-0,005269692;100 µA
0,25177002;3,96247199;0,00014032;1;25;0,005809117;-0,005269692;100 µA
0,26184082;4,06317999;0,000158783;1;26;0,005809117;-0,005269692;100 µA
0,271911621;4,163887989;0,000177795;1;27;0,005809117;-0,005269692;100 µA
0,281982422;4,264595989;0,000197449;1;28;0,005809117;-0,005269692;100 µA
0,292053223;4,365303989;0,000217682;1;29;0,005809117;-0,005269692;100 µA
0,302124023;4,466011989;0,000238403;1;30;0,005809117;-0,005269692;100 µA
0,312194824;4,566719988;0,00025946;1;31;0,005809117;-0,005269692;100 µA
0,322265625;4,667427988;0,000280914;1;32;0,005809117;-0,005269692;100 µA
0,332336426;4,768135988;0,000302521;1;33;0,005809117;-0,005269692;100 µA
0,342407227;4,868843988;0,000324097;1;34;0,005809117;-0,005269692;100 µA
0,352478027;4,969551987;0,00034552;1;35;0,005809117;-0,005269692;100 µA
0,362548828;5,070259987;0,00036676;1;36;0,005809117;-0,005269692;100 µA
0,372619629;5,170967987;0,000387573;1;37;0,005809117;-0,005269692;100 µA
0,38269043;5,271675987;0,000407867;1;38;0,005809117;-0,005269692;100 µA
0,39276123;5,372383986;0,000427185;1;39;0,005809117;-0,005269692;1 mA
0,402832031;5,473091986;0,000446045;1;40;0,005809117;-0,005269692;1 mA
0,412902832;5,573799986;0,000464142;1;41;0,005809117;-0,005269692;1 mA
0,422973633;5,674507986;0,000481232;1;42;0,005809117;-0,005269692;1 mA
0,433044434;5,775215985;0,000497345;1;43;0,005809117;-0,005269692;1 mA
0,443115234;5,875923985;0,000512695;1;44;0,005809117;-0,005269692;1 mA
0,453186035;5,976631985;0,000526733;1;45;0,005809117;-0,005269692;1 mA
0,463256836;6,077339985;0,000539856;1;46;0,005809117;-0,005269692;1 mA
0,473327637;6,178047984;0,000551758;1;47;0,005809117;-0,005269692;1 mA
0,483398438;6,278755984;0,000563049;1;48;0,005809117;-0,005269692;1 mA
0,493469238;6,379463984;0,00057312;1;49;0,005809117;-0,005269692;1 mA
0,503540039;6,480171984;0,000582581;1;50;0,005809117;-0,005269692;1 mA
0,51361084;6,580879983;0,000591125;1;51;0,005809117;-0,005269692;1 mA
0,523681641;6,681587983;0,00059906;1;52;0,005809117;-0,005269692;1 mA
0,533752441;6,782295983;0,000606079;1;53;0,005809117;-0,005269692;1 mA
0,543823242;6,883003983;0,000612793;1;54;0,005809117;-0,005269692;1 mA
0,553894043;6,983711982;0,000618591;1;55;0,005809117;-0,005269692;1 mA
0,563964844;7,084419982;0,000624084;1;56;0,005809117;-0,005269692;1 mA
0,574035645;7,185127982;0,000628967;1;57;0,005809117;-0,005269692;1 mA
0,584106445;7,285835982;0,00063324;1;58;0,005809117;-0,005269692;1 mA
0,594177246;7,386543981;0,000636902;1;59;0,005809117;-0,005269692;1 mA
0,604248047;7,487251981;0,000640259;1;60;0,005809117;-0,005269692;1 mA
0,614318848;7,587959981;0,000643005;1;61;0,005809117;-0,005269692;1 mA
0,624389648;7,688667981;0,000644836;1;62;0,005809117;-0,005269692;1 mA
0,634460449;7,78937598;0,000646362;1;63;0,005809117;-0,005269692;1 mA
0,64453125;7,89008398;0,000647278;1;64;0,005809117;-0,005269692;1 mA
0,654602051;7,99079198;0,000647278;1;65;0,005809117;-0,005269692;1 mA
0,664672852;8,09149998;0,000646667;1;66;0,005809117;-0,005269692;1 mA
0,674743652;8,192207979;0,000645447;1;67;0,005809117;-0,005269692;1 mA
0,684814453;8,292915979;0,000643616;1;68;0,005809117;-0,005269692;1 mA
0,694885254;8,393623979;0,000640869;1;69;0,005809117;-0,005269692;1 mA
0,704956055;8,494331979;0,000637817;1;70;0,005809117;-0,005269692;1 mA
0,715026855;8,595039978;0,000634155;1;71;0,005809117;-0,005269692;1 mA
0,725097656;8,695747978;0,000629883;1;72;0,005809117;-0,005269692;1 mA
0,735168457;8,796455978;0,000625;1;73;0,005809117;-0,005269692;1 mA
0,745239258;8,897163978;0,000619507;1;74;0,005809117;-0,005269692;1 mA
0,755310059;8,997871977;0,000613708;1;75;0,005809117;-0,005269692;1 mA
0,765380859;9,098579977;0,000607605;1;76;0,005809117;-0,005269692;1 mA
0,77545166;9,199287977;0,000600891;1;77;0,005809117;-0,005269692;1 mA
0,785522461;9,299995977;0,000594177;1;78;0,005809117;-0,005269692;1 mA
0,795593262;9,400703976;0,000587158;1;79;0,005809117;-0,005269692;1 mA
0,805664063;9,501411976;0,000580139;1;80;0,005809117;-0,005269692;1 mA
0,815734863;9,602119976;0,000572815;1;81;0,005809117;-0,005269692;1 mA
0,825805664;9,702827976;0,000565491;1;82;0,005809117;-0,005269692;1 mA
0,835876465;9,803535975;0,000558167;1;83;0,005809117;-0,005269692;1 mA
0,845947266;9,904243975;0,000551147;1;84;0,005809117;-0,005269692;1 mA
0,856018066;10,00495197;0,000544128;1;85;0,005809117;-0,005269692;1 mA
0,866088867;10,10565997;0,000537109;1;86;0,005809117;-0,005269692;1 mA
0,876159668;10,20636797;0,000530396;1;87;0,005809117;-0,005269692;1 mA
0,886230469;10,30707597;0,000523682;1;88;0,005809117;-0,005269692;1 mA
0,89630127;10,40778397;0,000517273;1;89;0,005809117;-0,005269692;1 mA
0,90637207;10,50849197;0,000510864;1;90;0,005809117;-0,005269692;1 mA
0,916442871;10,60919997;0,000504761;1;91;0,005809117;-0,005269692;1 mA
0,926513672;10,70990797;0,000498962;1;92;0,005809117;-0,005269692;1 mA
0,936584473;10,81061597;0,000493256;1;93;0,005809117;-0,005269692;1 mA
0,946655273;10,91132397;0,000487885;1;94;0,005809117;-0,005269692;1 mA
0,956726074;11,01203197;0,000482727;1;95;0,005809117;-0,005269692;1 mA
0,966796875;11,11273997;0,000477783;1;96;0,005809117;-0,005269692;1 mA
0,976867676;11,21344797;0,000473022;1;97;0,005809117;-0,005269692;1 mA
0,986938477;11,31415597;0,000468506;1;98;0,005809117;-0,005269692;1 mA
0,997009277;11,41486397;0,000464172;1;99;0,005809117;-0,005269692;1 mA
1,007080078;11,51557197;0,000460052;1;100;0,005809117;-0,005269692;1 mA
0,997009277;11,61627997;0,000449158;1;101;0,005809117;-0,005269692;1 mA
0,986938477;11,71698797;0,000440094;1;102;0,005809117;-0,005269692;1 mA
0,976867676;11,81769597;0,000432098;1;103;0,005809117;-0,005269692;1 mA
0,966796875;11,91840397;0,000424805;1;104;0,005809117;-0,005269692;1 mA
0,956726074;12,01911197;0,000417938;1;105;0,005809117;-0,005269692;1 mA
0,946655273;12,11981997;0,00041153;1;106;0,005809117;-0,005269692;1 mA
0,936584473;12,22052797;0,000405457;1;107;0,005809117;-0,005269692;1 mA
0,926513672;12,32123597;0,000399658;1;108;0,005809117;-0,005269692;1 mA
0,916442871;12,42194397;0,000394043;1;109;0,005809117;-0,005269692;1 mA
0,90637207;12,52265197;0,000388672;1;110;0,005809117;-0,005269692;1 mA
0,89630127;12,62335997;0,000383453;1;111;0,005809117;-0,005269692;1 mA
0,886230469;12,72406797;0,000378387;1;112;0,005809117;-0,005269692;1 mA
0,876159668;12,82477597;0,000373444;1;113;0,005809117;-0,005269692;1 mA
0,866088867;12,92548397;0,000368622;1;114;0,005809117;-0,005269692;1 mA
0,856018066;13,02619197;0,000363892;1;115;0,005809117;-0,005269692;1 mA
0,845947266;13,12689997;0,000359222;1;116;0,005809117;-0,005269692;1 mA
0,835876465;13,22760797;0,000354584;1;117;0,005809117;-0,005269692;1 mA
0,825805664;13,32831597;0,000350037;1;118;0,005809117;-0,005269692;1 mA
0,815734863;13,42902397;0,00034552;1;119;0,005809117;-0,005269692;1 mA
0,805664063;13,52973197;0,000341064;1;120;0,005809117;-0,005269692;1 mA
0,795593262;13,63043997;0,000336548;1;121;0,005809117;-0,005269692;1 mA
0,785522461;13,73114797;0,000332092;1;122;0,005809117;-0,005269692;1 mA
0,77545166;13,83185597;0,000327637;1;123;0,005809117;-0,005269692;1 mA
0,765380859;13,93256396;0,000323151;1;124;0,005809117;-0,005269692;1 mA
0,755310059;14,03327196;0,000318634;1;125;0,005809117;-0,005269692;1 mA
0,745239258;14,13397996;0,000314117;1;126;0,005809117;-0,005269692;1 mA
0,735168457;14,23468796;0,000309509;1;127;0,005809117;-0,005269692;1 mA
0,725097656;14,33539596;0,000304932;1;128;0,005809117;-0,005269692;1 mA
0,715026855;14,43610396;0,000300232;1;129;0,005809117;-0,005269692;1 mA
0,704956055;14,53681196;0,000295563;1;130;0,005809117;-0,005269692;1 mA
0,694885254;14,63751996;0,000290741;1;131;0,005809117;-0,005269692;1 mA
0,684814453;14,73822796;0,000285889;1;132;0,005809117;-0,005269692;1 mA
0,674743652;14,83893596;0,000280914;1;133;0,005809117;-0,005269692;1 mA
0,664672852;14,93964396;0,000275909;1;134;0,005809117;-0,005269692;1 mA
0,654602051;15,04035196;0,000270813;1;135;0,005809117;-0,005269692;1 mA
0,64453125;15,14105996;0,000265625;1;136;0,005809117;-0,005269692;1 mA
0,634460449;15,24176796;0,000260315;1;137;0,005809117;-0,005269692;1 mA
0,624389648;15,34247596;0,000254913;1;138;0,005809117;-0,005269692;1 mA
0,614318848;15,44318396;0,00024942;1;139;0,005809117;-0,005269692;1 mA
0,604248047;15,54389196;0,000243835;1;140;0,005809117;-0,005269692;1 mA
0,594177246;15,64459996;0,000238159;1;141;0,005809117;-0,005269692;1 mA
0,584106445;15,74530796;0,000232391;1;142;0,005809117;-0,005269692;1 mA
0,574035645;15,84601596;0,000226532;1;143;0,005809117;-0,005269692;1 mA
0,563964844;15,94672396;0,000220551;1;144;0,005809117;-0,005269692;1 mA
0,553894043;16,04743196;0,000214508;1;145;0,005809117;-0,005269692;1 mA
0,543823242;16,14813996;0,000208405;1;146;0,005809117;-0,005269692;1 mA
0,533752441;16,24884796;0,000202148;1;147;0,005809117;-0,005269692;1 mA
0,523681641;16,34955596;0,000195862;1;148;0,005809117;-0,005269692;1 mA
0,51361084;16,45026396;0,000189545;1;149;0,005809117;-0,005269692;1 mA
0,503540039;16,55097196;0,000183136;1;150;0,005809117;-0,005269692;1 mA
0,493469238;16,65167996;0,000176697;1;151;0,005809117;-0,005269692;1 mA
0,483398438;16,75238796;0,000170197;1;152;0,005809117;-0,005269692;1 mA
0,473327637;16,85309596;0,000163696;1;153;0,005809117;-0,005269692;1 mA
0,463256836;16,95380396;0,000157135;1;154;0,005809117;-0,005269692;1 mA
0,453186035;17,05451196;0,000150574;1;155;0,005809117;-0,005269692;1 mA
0,443115234;17,15521996;0,000144043;1;156;0,005809117;-0,005269692;1 mA
0,433044434;17,25592796;0,000137543;1;157;0,005809117;-0,005269692;1 mA
0,422973633;17,35663596;0,000131012;1;158;0,005809117;-0,005269692;1 mA
0,412902832;17,45734396;0,000124573;1;159;0,005809117;-0,005269692;1 mA
0,402832031;17,55805196;0,000118134;1;160;0,005809117;-0,005269692;1 mA
0,39276123;17,65875996;0,000111755;1;161;0,005809117;-0,005269692;1 mA
0,38269043;17,75946796;0,000105408;1;162;0,005809117;-0,005269692;1 mA
0,372619629;17,86017595;9,92E-05;1;163;0,005809117;-0,005269692;1 mA
0,362548828;17,96088395;9,30E-05;1;164;0,005809117;-0,005269692;1 mA
0,352478027;18,06159195;8,68E-05;1;165;0,005809117;-0,005269692;1 mA
0,342407227;18,16229995;8,07E-05;1;166;0,005809117;-0,005269692;1 mA
0,332336426;18,26300795;7,47E-05;1;167;0,005809117;-0,005269692;1 mA
0,322265625;18,36371595;6,88E-05;1;168;0,005809117;-0,005269692;100 µA
0,312194824;18,46442395;6,26E-05;1;169;0,005809117;-0,005269692;100 µA
0,302124023;18,56513195;5,65E-05;1;170;0,005809117;-0,005269692;100 µA
0,292053223;18,66583995;5,01E-05;1;171;0,005809117;-0,005269692;100 µA
0,281982422;18,76654795;4,35E-05;1;172;0,005809117;-0,005269692;100 µA
0,271911621;18,86725595;3,65E-05;1;173;0,005809117;-0,005269692;100 µA
0,26184082;18,96796395;2,91E-05;1;174;0,005809117;-0,005269692;100 µA
0,25177002;19,06867195;2,11E-05;1;175;0,005809117;-0,005269692;100 µA
0,241699219;19,16937995;1,22E-05;1;176;0,005809117;-0,005269692;100 µA
0,231628418;19,27008795;2,24E-06;1;177;0,005809117;-0,005269692;100 µA
0,221557617;19,37079595;-8,92E-06;1;178;0,005809117;-0,005269692;100 µA
0,211486816;19,47150395;-2,16E-05;1;179;0,005809117;-0,005269692;100 µA
0,201416016;19,57221195;-3,59E-05;1;180;0,005809117;-0,005269692;100 µA
0,191345215;19,67291995;-5,20E-05;1;181;0,005809117;-0,005269692;100 µA
0,181274414;19,77362795;-7,01E-05;1;182;0,005809117;-0,005269692;100 µA
0,171203613;19,87433595;-9,01E-05;1;183;0,005809117;-0,005269692;100 µA
0,161132813;19,97504395;-0,000112061;1;184;0,005809117;-0,005269692;100 µA
0,151062012;20,07575195;-0,000135712;1;185;0,005809117;-0,005269692;100 µA
0,140991211;20,17645995;-0,000160858;1;186;0,005809117;-0,005269692;100 µA
0,13092041;20,27716795;-0,000187225;1;187;0,005809117;-0,005269692;100 µA
0,120849609;20,37787595;-0,000214478;1;188;0,005809117;-0,005269692;100 µA
0,110778809;20,47858395;-0,000242126;1;189;0,005809117;-0,005269692;100 µA
0,100708008;20,57929195;-0,000269928;1;190;0,005809117;-0,005269692;100 µA
0,090637207;20,67999995;-0,000297516;1;191;0,005809117;-0,005269692;100 µA
0,080566406;20,78070795;-0,000324615;1;192;0,005809117;-0,005269692;100 µA
0,070495605;20,88141595;-0,000350739;1;193;0,005809117;-0,005269692;100 µA
0,060424805;20,98212395;-0,000375916;1;194;0,005809117;-0,005269692;100 µA
0,050354004;21,08283195;-0,000399933;1;195;0,005809117;-0,005269692;100 µA
0,040283203;21,18353995;-0,000422791;1;196;0,005809117;-0,005269692;100 µA
0,030212402;21,28424795;-0,000444061;1;197;0,005809117;-0,005269692;1 mA
0,020141602;21,38495595;-0,000464325;1;198;0,005809117;-0,005269692;1 mA
0,010070801;21,48566395;-0,000483337;1;199;0,005809117;-0,005269692;1 mA
0;21,58637195;-0,000501404;1;200;0,005809117;-0,005269692;1 mA
-0,010070801;21,68707995;-0,000518188;1;201;0,005809117;-0,005269692;1 mA
-0,020141602;21,78778794;-0,000534058;1;202;0,005809117;-0,005269692;1 mA
-0,030212402;21,88849594;-0,000548706;1;203;0,005809117;-0,005269692;1 mA
-0,040283203;21,98920394;-0,000562744;1;204;0,005809117;-0,005269692;1 mA
-0,050354004;22,08991194;-0,000576172;1;205;0,005809117;-0,005269692;1 mA
-0,060424805;22,19061994;-0,000588989;1;206;0,005809117;-0,005269692;1 mA
-0,070495605;22,29132794;-0,000601196;1;207;0,005809117;-0,005269692;1 mA
-0,080566406;22,39203594;-0,000613098;1;208;0,005809117;-0,005269692;1 mA
-0,090637207;22,49274394;-0,00062439;1;209;0,005809117;-0,005269692;1 mA
-0,100708008;22,59345194;-0,000635071;1;210;0,005809117;-0,005269692;1 mA
-0,110778809;22,69415994;-0,000645752;1;211;0,005809117;-0,005269692;1 mA
-0,120849609;22,79486794;-0,000656128;1;212;0,005809117;-0,005269692;1 mA
-0,13092041;22,89557594;-0,000665894;1;213;0,005809117;-0,005269692;1 mA
-0,140991211;22,99628394;-0,000675659;1;214;0,005809117;-0,005269692;1 mA
-0,151062012;23,09699194;-0,000684814;1;215;0,005809117;-0,005269692;1 mA
-0,161132813;23,19769994;-0,000694275;1;216;0,005809117;-0,005269692;1 mA
-0,171203613;23,29840794;-0,00070282;1;217;0,005809117;-0,005269692;1 mA
-0,181274414;23,39911594;-0,000711365;1;218;0,005809117;-0,005269692;1 mA
-0,191345215;23,49982394;-0,000719604;1;219;0,005809117;-0,005269692;1 mA
-0,201416016;23,60053194;-0,000727844;1;220;0,005809117;-0,005269692;1 mA
-0,211486816;23,70123994;-0,000735474;1;221;0,005809117;-0,005269692;1 mA
-0,221557617;23,80194794;-0,000743103;1;222;0,005809117;-0,005269692;1 mA
-0,231628418;23,90265594;-0,000750732;1;223;0,005809117;-0,005269692;1 mA
-0,241699219;24,00336394;-0,000757751;1;224;0,005809117;-0,005269692;1 mA
-0,25177002;24,10407194;-0,000764465;1;225;0,005809117;-0,005269692;1 mA
-0,26184082;24,20477994;-0,000770874;1;226;0,005809117;-0,005269692;1 mA
-0,271911621;24,30548794;-0,000777283;1;227;0,005809117;-0,005269692;1 mA
-0,281982422;24,40619594;-0,000783081;1;228;0,005809117;-0,005269692;1 mA
-0,292053223;24,50690394;-0,000788879;1;229;0,005809117;-0,005269692;1 mA
-0,302124023;24,60761194;-0,000794067;1;230;0,005809117;-0,005269692;1 mA
-0,312194824;24,70831994;-0,000799255;1;231;0,005809117;-0,005269692;1 mA
-0,322265625;24,80902794;-0,000804138;1;232;0,005809117;-0,005269692;1 mA
-0,332336426;24,90973594;-0,000808716;1;233;0,005809117;-0,005269692;1 mA
-0,342407227;25,01044394;-0,000812683;1;234;0,005809117;-0,005269692;1 mA
-0,352478027;25,11115194;-0,000816345;1;235;0,005809117;-0,005269692;1 mA
-0,362548828;25,21185994;-0,000820007;1;236;0,005809117;-0,005269692;1 mA
-0,372619629;25,31256794;-0,000823059;1;237;0,005809117;-0,005269692;1 mA
-0,38269043;25,41327594;-0,000825806;1;238;0,005809117;-0,005269692;1 mA
-0,39276123;25,51398394;-0,000827942;1;239;0,005809117;-0,005269692;1 mA
-0,402832031;25,61469194;-0,000830078;1;240;0,005809117;-0,005269692;1 mA
-0,39276123;25,71539994;-0,000787964;1;241;0,005809117;-0,005269692;1 mA
-0,38269043;25,81610793;-0,000751953;1;242;0,005809117;-0,005269692;1 mA
-0,372619629;25,91681593;-0,000719604;1;243;0,005809117;-0,005269692;1 mA
-0,362548828;26,01752393;-0,000690002;1;244;0,005809117;-0,005269692;1 mA
-0,352478027;26,11823193;-0,000662537;1;245;0,005809117;-0,005269692;1 mA
-0,342407227;26,21893993;-0,000636902;1;246;0,005809117;-0,005269692;1 mA
-0,332336426;26,31964793;-0,000612793;1;247;0,005809117;-0,005269692;1 mA
-0,322265625;26,42035593;-0,000589905;1;248;0,005809117;-0,005269692;1 mA
-0,312194824;26,52106393;-0,000567932;1;249;0,005809117;-0,005269692;1 mA
-0,302124023;26,62177193;-0,00054718;1;250;0,005809117;-0,005269692;1 mA
-0,292053223;26,72247993;-0,000527344;1;251;0,005809117;-0,005269692;1 mA
-0,281982422;26,82318793;-0,000508423;1;252;0,005809117;-0,005269692;1 mA
-0,271911621;26,92389593;-0,000490021;1;253;0,005809117;-0,005269692;1 mA
-0,26184082;27,02460393;-0,000472412;1;254;0,005809117;-0,005269692;1 mA
-0,25177002;27,12531193;-0,000455414;1;255;0,005809117;-0,005269692;1 mA
-0,241699219;27,22601993;-0,000439087;1;256;0,005809117;-0,005269692;1 mA
-0,231628418;27,32672793;-0,000423126;1;257;0,005809117;-0,005269692;1 mA
-0,221557617;27,42743593;-0,000407806;1;258;0,005809117;-0,005269692;1 mA
-0,211486816;27,52814393;-0,000392914;1;259;0,005809117;-0,005269692;1 mA
-0,201416016;27,62885193;-0,000378571;1;260;0,005809117;-0,005269692;1 mA
-0,191345215;27,72955993;-0,000364563;1;261;0,005809117;-0,005269692;1 mA
-0,181274414;27,83026793;-0,000351013;1;262;0,005809117;-0,005269692;1 mA
-0,171203613;27,93097593;-0,00033783;1;263;0,005809117;-0,005269692;1 mA
-0,161132813;28,03168393;-0,000325073;1;264;0,005809117;-0,005269692;1 mA
-0,151062012;28,13239193;-0,000312622;1;265;0,005809117;-0,005269692;1 mA
-0,140991211;28,23309993;-0,000300507;1;266;0,005809117;-0,005269692;1 mA
-0,13092041;28,33380793;-0,000288757;1;267;0,005809117;-0,005269692;1 mA
-0,120849609;28,43451593;-0,000277344;1;268;0,005809117;-0,005269692;1 mA
-0,110778809;28,53522393;-0,000266174;1;269;0,005809117;-0,005269692;1 mA
-0,100708008;28,63593193;-0,000255341;1;270;0,005809117;-0,005269692;1 mA
-0,090637207;28,73663993;-0,000244751;1;271;0,005809117;-0,005269692;1 mA
-0,080566406;28,83734793;-0,000234467;1;272;0,005809117;-0,005269692;1 mA
-0,070495605;28,93805593;-0,000224365;1;273;0,005809117;-0,005269692;1 mA
-0,060424805;29,03876393;-0,000214508;1;274;0,005809117;-0,005269692;1 mA
-0,050354004;29,13947193;-0,000204803;1;275;0,005809117;-0,005269692;1 mA
-0,040283203;29,24017993;-0,000195374;1;276;0,005809117;-0,005269692;1 mA
-0,030212402;29,34088793;-0,000186035;1;277;0,005809117;-0,005269692;1 mA
-0,020141602;29,44159593;-0,000176849;1;278;0,005809117;-0,005269692;1 mA
-0,010070801;29,54230393;-0,000167725;1;279;0,005809117;-0,005269692;1 mA
0;29,64301193;-0,000158691;1;280;0,005809117;-0,005269692;1 mA
