Potential applied (V);Time (s);WE(1).Current (A);Scan;Index;Q+;Q-;Current range
0,010070801;1,860158995;-0,00018988;1;1;0,017148151;-0,00931627;1 mA
0,020141602;1,960866995;-0,000170715;1;2;0,017148151;-0,00931627;1 mA
0,030212402;2,061574995;-0,000153107;1;3;0,017148151;-0,00931627;1 mA
0,040283203;2,162282995;-0,000136963;1;4;0,017148151;-0,00931627;1 mA
0,050354004;2,262990994;-0,000121918;1;5;0,017148151;-0,00931627;1 mA
0,060424805;2,363698994;-0,000107941;1;6;0,017148151;-0,00931627;1 mA
0,070495605;2,464406994;-9,49097E-05;1;7;0,017148151;-0,00931627;1 mA
0,080566406;2,565114994;-8,27637E-05;1;8;0,017148151;-0,00931627;1 mA
0,090637207;2,665822993;-7,13501E-05;1;9;0,017148151;-0,00931627;1 mA
0,100708008;2,766530993;-6,06689E-05;1;10;0,017148151;-0,00931627;1 mA
0,110778809;2,867238993;-5,05981E-05;1;11;0,017148151;-0,00931627;1 mA
0,120849609;2,967946993;-4,10431E-05;1;12;0,017148151;-0,00931627;100 에
0,13092041;3,068654992;-3,20526E-05;1;13;0,017148151;-0,00931627;100 에
0,140991211;3,169362992;-2,35382E-05;1;14;0,017148151;-0,00931627;100 에
0,151062012;3,270070992;-1,53961E-05;1;15;0,017148151;-0,00931627;100 에
0,161132813;3,370778991;-7,58972E-06;1;16;0,017148151;-0,00931627;100 에
0,171203613;3,471486991;4,57764E-09;1;17;0,017148151;-0,00931627;100 에
0,181274414;3,572194991;7,41577E-06;1;18;0,017148151;-0,00931627;100 에
0,191345215;3,672902991;1,4682E-05;1;19;0,017148151;-0,00931627;100 에
0,201416016;3,77361099;2,19299E-05;1;20;0,017148151;-0,00931627;100 에
0,211486816;3,87431899;2,92725E-05;1;21;0,017148151;-0,00931627;100 에
0,221557617;3,97502699;3,67645E-05;1;22;0,017148151;-0,00931627;100 에
0,231628418;4,07573499;4,45526E-05;1;23;0,017148151;-0,00931627;100 에
0,241699219;4,176442989;5,27344E-05;1;24;0,017148151;-0,00931627;100 에
0,25177002;4,277150989;6,14014E-05;1;25;0,017148151;-0,00931627;100 에
0,26184082;4,377858989;7,08008E-05;1;26;0,017148151;-0,00931627;100 에
0,271911621;4,478566989;8,09021E-05;1;27;0,017148151;-0,00931627;100 에
0,281982422;4,579274988;9,19495E-05;1;28;0,017148151;-0,00931627;100 에
0,292053223;4,679982988;0,000104034;1;29;0,017148151;-0,00931627;100 에
0,302124023;4,780690988;0,00011731;1;30;0,017148151;-0,00931627;100 에
0,312194824;4,881398988;0,000131836;1;31;0,017148151;-0,00931627;100 에
0,322265625;4,982106987;0,000147858;1;32;0,017148151;-0,00931627;100 에
0,332336426;5,082814987;0,000165375;1;33;0,017148151;-0,00931627;100 에
0,342407227;5,183522987;0,000184479;1;34;0,017148151;-0,00931627;100 에
0,352478027;5,284230987;0,000205292;1;35;0,017148151;-0,00931627;100 에
0,362548828;5,384938986;0,000227905;1;36;0,017148151;-0,00931627;100 에
0,372619629;5,485646986;0,000252441;1;37;0,017148151;-0,00931627;100 에
0,38269043;5,586354986;0,000278839;1;38;0,017148151;-0,00931627;100 에
0,39276123;5,687062986;0,00030719;1;39;0,017148151;-0,00931627;100 에
0,402832031;5,787770985;0,000337616;1;40;0,017148151;-0,00931627;100 에
0,412902832;5,888478985;0,000370117;1;41;0,017148151;-0,00931627;100 에
0,422973633;5,989186985;0,000404572;1;42;0,017148151;-0,00931627;100 에
0,433044434;6,089894985;0,000440674;1;43;0,017148151;-0,00931627;1 mA
0,443115234;6,190602984;0,000479156;1;44;0,017148151;-0,00931627;1 mA
0,453186035;6,291310984;0,00052002;1;45;0,017148151;-0,00931627;1 mA
0,463256836;6,392018984;0,000562134;1;46;0,017148151;-0,00931627;1 mA
0,473327637;6,492726984;0,000606384;1;47;0,017148151;-0,00931627;1 mA
0,483398438;6,593434983;0,000652466;1;48;0,017148151;-0,00931627;1 mA
0,493469238;6,694142983;0,000700073;1;49;0,017148151;-0,00931627;1 mA
0,503540039;6,794850983;0,000749207;1;50;0,017148151;-0,00931627;1 mA
0,51361084;6,895558983;0,000799866;1;51;0,017148151;-0,00931627;1 mA
0,523681641;6,996266982;0,000851746;1;52;0,017148151;-0,00931627;1 mA
0,533752441;7,096974982;0,000905151;1;53;0,017148151;-0,00931627;1 mA
0,543823242;7,197682982;0,000959473;1;54;0,017148151;-0,00931627;1 mA
0,553894043;7,298390982;0,001014709;1;55;0,017148151;-0,00931627;1 mA
0,563964844;7,399098981;0,001070862;1;56;0,017148151;-0,00931627;1 mA
0,574035645;7,499806981;0,001127625;1;57;0,017148151;-0,00931627;1 mA
0,584106445;7,600514981;0,001185303;1;58;0,017148151;-0,00931627;1 mA
0,594177246;7,701222981;0,001242981;1;59;0,017148151;-0,00931627;1 mA
0,604248047;7,80193098;0,00130127;1;60;0,017148151;-0,00931627;1 mA
0,614318848;7,90263898;0,001359253;1;61;0,017148151;-0,00931627;1 mA
0,624389648;8,00334698;0,001417542;1;62;0,017148151;-0,00931627;1 mA
0,634460449;8,10405498;0,001476135;1;63;0,017148151;-0,00931627;1 mA
0,64453125;8,204762979;0,001534119;1;64;0,017148151;-0,00931627;1 mA
0,654602051;8,305470979;0,001591187;1;65;0,017148151;-0,00931627;1 mA
0,664672852;8,406178979;0,001648254;1;66;0,017148151;-0,00931627;1 mA
0,674743652;8,506886979;0,001704712;1;67;0,017148151;-0,00931627;1 mA
0,684814453;8,607594978;0,001760559;1;68;0,017148151;-0,00931627;1 mA
0,694885254;8,708302978;0,001815796;1;69;0,017148151;-0,00931627;1 mA
0,704956055;8,809010978;0,001870728;1;70;0,017148151;-0,00931627;1 mA
0,715026855;8,909718978;0,001924744;1;71;0,017148151;-0,00931627;1 mA
0,725097656;9,010426977;0,001978455;1;72;0,017148151;-0,00931627;1 mA
0,735168457;9,111134977;0,002030945;1;73;0,017148151;-0,00931627;1 mA
0,745239258;9,211842977;0,002082825;1;74;0,017148151;-0,00931627;1 mA
0,755310059;9,312550976;0,002133179;1;75;0,017148151;-0,00931627;1 mA
0,765380859;9,413258976;0,002182007;1;76;0,017148151;-0,00931627;1 mA
0,77545166;9,513966976;0,002228394;1;77;0,017148151;-0,00931627;1 mA
0,785522461;9,614674976;0,002272339;1;78;0,017148151;-0,00931627;1 mA
0,795593262;9,715382975;0,002312317;1;79;0,017148151;-0,00931627;1 mA
0,805664063;9,816090975;0,002348938;1;80;0,017148151;-0,00931627;1 mA
0,815734863;9,916798975;0,002380981;1;81;0,017148151;-0,00931627;1 mA
0,825805664;10,01750697;0,002408752;1;82;0,017148151;-0,00931627;1 mA
0,835876465;10,11821497;0,002431641;1;83;0,017148151;-0,00931627;1 mA
0,845947266;10,21892297;0,002450562;1;84;0,017148151;-0,00931627;1 mA
0,856018066;10,31963097;0,002464294;1;85;0,017148151;-0,00931627;1 mA
0,866088867;10,42033897;0,002474365;1;86;0,017148151;-0,00931627;1 mA
0,876159668;10,52104697;0,002479858;1;87;0,017148151;-0,00931627;1 mA
0,886230469;10,62175497;0,002481995;1;88;0,017148151;-0,00931627;1 mA
0,89630127;10,72246297;0,002480164;1;89;0,017148151;-0,00931627;1 mA
0,90637207;10,82317097;0,002474976;1;90;0,017148151;-0,00931627;1 mA
0,916442871;10,92387897;0,002466736;1;91;0,017148151;-0,00931627;1 mA
0,926513672;11,02458697;0,002456055;1;92;0,017148151;-0,00931627;1 mA
0,936584473;11,12529497;0,002442627;1;93;0,017148151;-0,00931627;1 mA
0,946655273;11,22600297;0,002427063;1;94;0,017148151;-0,00931627;1 mA
0,956726074;11,32671097;0,002409363;1;95;0,017148151;-0,00931627;1 mA
0,966796875;11,42741897;0,002390137;1;96;0,017148151;-0,00931627;1 mA
0,976867676;11,52812697;0,002369385;1;97;0,017148151;-0,00931627;1 mA
0,986938477;11,62883497;0,002347412;1;98;0,017148151;-0,00931627;1 mA
0,997009277;11,72954297;0,002324524;1;99;0,017148151;-0,00931627;1 mA
1,007080078;11,83025097;0,00230072;1;100;0,017148151;-0,00931627;1 mA
0,997009277;11,93095897;0,00221344;1;101;0,017148151;-0,00931627;1 mA
0,986938477;12,03166697;0,002141113;1;102;0,017148151;-0,00931627;1 mA
0,976867676;12,13237497;0,002077942;1;103;0,017148151;-0,00931627;1 mA
0,966796875;12,23308297;0,002020874;1;104;0,017148151;-0,00931627;1 mA
0,956726074;12,33379097;0,001968079;1;105;0,017148151;-0,00931627;1 mA
0,946655273;12,43449897;0,00191925;1;106;0,017148151;-0,00931627;1 mA
0,936584473;12,53520697;0,001873169;1;107;0,017148151;-0,00931627;1 mA
0,926513672;12,63591497;0,001829529;1;108;0,017148151;-0,00931627;1 mA
0,916442871;12,73662297;0,00178772;1;109;0,017148151;-0,00931627;1 mA
0,90637207;12,83733097;0,001747742;1;110;0,017148151;-0,00931627;1 mA
0,89630127;12,93803897;0,00170929;1;111;0,017148151;-0,00931627;1 mA
0,886230469;13,03874697;0,001671448;1;112;0,017148151;-0,00931627;1 mA
0,876159668;13,13945497;0,001634827;1;113;0,017148151;-0,00931627;1 mA
0,866088867;13,24016297;0,001598816;1;114;0,017148151;-0,00931627;1 mA
0,856018066;13,34087097;0,001563416;1;115;0,017148151;-0,00931627;1 mA
0,845947266;13,44157897;0,001528625;1;116;0,017148151;-0,00931627;1 mA
0,835876465;13,54228697;0,001493835;1;117;0,017148151;-0,00931627;1 mA
0,825805664;13,64299497;0,001459656;1;118;0,017148151;-0,00931627;1 mA
0,815734863;13,74370297;0,001425171;1;119;0,017148151;-0,00931627;1 mA
0,805664063;13,84441097;0,001391296;1;120;0,017148151;-0,00931627;1 mA
0,795593262;13,94511896;0,001356812;1;121;0,017148151;-0,00931627;1 mA
0,785522461;14,04582696;0,001322327;1;122;0,017148151;-0,00931627;1 mA
0,77545166;14,14653496;0,001287537;1;123;0,017148151;-0,00931627;1 mA
0,765380859;14,24724296;0,001252747;1;124;0,017148151;-0,00931627;1 mA
0,755310059;14,34795096;0,001217651;1;125;0,017148151;-0,00931627;1 mA
0,745239258;14,44865896;0,001182251;1;126;0,017148151;-0,00931627;1 mA
0,735168457;14,54936696;0,001146545;1;127;0,017148151;-0,00931627;1 mA
0,725097656;14,65007496;0,001110535;1;128;0,017148151;-0,00931627;1 mA
0,715026855;14,75078296;0,001074524;1;129;0,017148151;-0,00931627;1 mA
0,704956055;14,85149096;0,001038513;1;130;0,017148151;-0,00931627;1 mA
0,694885254;14,95219896;0,001002502;1;131;0,017148151;-0,00931627;1 mA
0,684814453;15,05290696;0,000966797;1;132;0,017148151;-0,00931627;1 mA
0,674743652;15,15361496;0,000931702;1;133;0,017148151;-0,00931627;1 mA
0,664672852;15,25432296;0,000896912;1;134;0,017148151;-0,00931627;1 mA
0,654602051;15,35503096;0,000862732;1;135;0,017148151;-0,00931627;1 mA
0,64453125;15,45573896;0,000829468;1;136;0,017148151;-0,00931627;1 mA
0,634460449;15,55644696;0,000796509;1;137;0,017148151;-0,00931627;1 mA
0,624389648;15,65715496;0,00076416;1;138;0,017148151;-0,00931627;1 mA
0,614318848;15,75786296;0,000732117;1;139;0,017148151;-0,00931627;1 mA
0,604248047;15,85857096;0,000700684;1;140;0,017148151;-0,00931627;1 mA
0,594177246;15,95927896;0,000669861;1;141;0,017148151;-0,00931627;1 mA
0,584106445;16,05998696;0,000639343;1;142;0,017148151;-0,00931627;1 mA
0,574035645;16,16069496;0,000609131;1;143;0,017148151;-0,00931627;1 mA
0,563964844;16,26140296;0,000579529;1;144;0,017148151;-0,00931627;1 mA
0,553894043;16,36211096;0,000550232;1;145;0,017148151;-0,00931627;1 mA
0,543823242;16,46281896;0,000521545;1;146;0,017148151;-0,00931627;1 mA
0,533752441;16,56352696;0,000493286;1;147;0,017148151;-0,00931627;1 mA
0,523681641;16,66423496;0,000465729;1;148;0,017148151;-0,00931627;1 mA
0,51361084;16,76494296;0,000438721;1;149;0,017148151;-0,00931627;1 mA
0,503540039;16,86565096;0,000412537;1;150;0,017148151;-0,00931627;1 mA
0,493469238;16,96635896;0,000386963;1;151;0,017148151;-0,00931627;1 mA
0,483398438;17,06706696;0,000362122;1;152;0,017148151;-0,00931627;1 mA
0,473327637;17,16777496;0,000338135;1;153;0,017148151;-0,00931627;1 mA
0,463256836;17,26848296;0,000314972;1;154;0,017148151;-0,00931627;1 mA
0,453186035;17,36919096;0,000292664;1;155;0,017148151;-0,00931627;1 mA
0,443115234;17,46989896;0,00027121;1;156;0,017148151;-0,00931627;1 mA
0,433044434;17,57060696;0,000250763;1;157;0,017148151;-0,00931627;1 mA
0,422973633;17,67131496;0,000231293;1;158;0,017148151;-0,00931627;1 mA
0,412902832;17,77202296;0,000212677;1;159;0,017148151;-0,00931627;1 mA
0,402832031;17,87273095;0,000195068;1;160;0,017148151;-0,00931627;1 mA
0,39276123;17,97343895;0,000178436;1;161;0,017148151;-0,00931627;1 mA
0,38269043;18,07414695;0,00016272;1;162;0,017148151;-0,00931627;1 mA
0,372619629;18,17485495;0,00014801;1;163;0,017148151;-0,00931627;1 mA
0,362548828;18,27556295;0,000134155;1;164;0,017148151;-0,00931627;1 mA
0,352478027;18,37627095;0,000121246;1;165;0,017148151;-0,00931627;1 mA
0,342407227;18,47697895;0,000109222;1;166;0,017148151;-0,00931627;1 mA
0,332336426;18,57768695;9,79919E-05;1;167;0,017148151;-0,00931627;1 mA
0,322265625;18,67839495;8,74939E-05;1;168;0,017148151;-0,00931627;1 mA
0,312194824;18,77910295;7,77588E-05;1;169;0,017148151;-0,00931627;1 mA
0,302124023;18,87981095;6,86951E-05;1;170;0,017148151;-0,00931627;1 mA
0,292053223;18,98051895;6,02112E-05;1;171;0,017148151;-0,00931627;1 mA
0,281982422;19,08122695;5,23682E-05;1;172;0,017148151;-0,00931627;100 에
0,271911621;19,18193495;4,47754E-05;1;173;0,017148151;-0,00931627;100 에
0,26184082;19,28264295;3,74878E-05;1;174;0,017148151;-0,00931627;100 에
0,25177002;19,38335095;3,04016E-05;1;175;0,017148151;-0,00931627;100 에
0,241699219;19,48405895;2,33887E-05;1;176;0,017148151;-0,00931627;100 에
0,231628418;19,58476695;1,63513E-05;1;177;0,017148151;-0,00931627;100 에
0,221557617;19,68547495;9,15833E-06;1;178;0,017148151;-0,00931627;100 에
0,211486816;19,78618295;1,62506E-06;1;179;0,017148151;-0,00931627;100 에
0,201416016;19,88689095;-6,35376E-06;1;180;0,017148151;-0,00931627;100 에
0,191345215;19,98759895;-1,49017E-05;1;181;0,017148151;-0,00931627;100 에
0,181274414;20,08830695;-2,41394E-05;1;182;0,017148151;-0,00931627;100 에
0,171203613;20,18901495;-3,41858E-05;1;183;0,017148151;-0,00931627;100 에
0,161132813;20,28972295;-4,51752E-05;1;184;0,017148151;-0,00931627;100 에
0,151062012;20,39043095;-5,71289E-05;1;185;0,017148151;-0,00931627;100 에
0,140991211;20,49113895;-7,01294E-05;1;186;0,017148151;-0,00931627;100 에
0,13092041;20,59184695;-8,4198E-05;1;187;0,017148151;-0,00931627;100 에
0,120849609;20,69255495;-9,94873E-05;1;188;0,017148151;-0,00931627;100 에
0,110778809;20,79326295;-0,000115875;1;189;0,017148151;-0,00931627;100 에
0,100708008;20,89397095;-0,000133514;1;190;0,017148151;-0,00931627;100 에
0,090637207;20,99467895;-0,000152435;1;191;0,017148151;-0,00931627;100 에
0,080566406;21,09538695;-0,000172638;1;192;0,017148151;-0,00931627;100 에
0,070495605;21,19609495;-0,000194061;1;193;0,017148151;-0,00931627;100 에
0,060424805;21,29680295;-0,000216736;1;194;0,017148151;-0,00931627;100 에
0,050354004;21,39751095;-0,000240753;1;195;0,017148151;-0,00931627;100 에
0,040283203;21,49821895;-0,000266144;1;196;0,017148151;-0,00931627;100 에
0,030212402;21,59892695;-0,000292694;1;197;0,017148151;-0,00931627;100 에
0,020141602;21,69963495;-0,00032074;1;198;0,017148151;-0,00931627;100 에
0,010070801;21,80034294;-0,000350067;1;199;0,017148151;-0,00931627;100 에
0;21,90105094;-0,000380859;1;200;0,017148151;-0,00931627;100 에
-0,010070801;22,00175894;-0,000412842;1;201;0,017148151;-0,00931627;100 에
-0,020141602;22,10246694;-0,000446075;1;202;0,017148151;-0,00931627;1 mA
-0,030212402;22,20317494;-0,000480621;1;203;0,017148151;-0,00931627;1 mA
-0,040283203;22,30388294;-0,000516663;1;204;0,017148151;-0,00931627;1 mA
-0,050354004;22,40459094;-0,000553589;1;205;0,017148151;-0,00931627;1 mA
-0,060424805;22,50529894;-0,000592346;1;206;0,017148151;-0,00931627;1 mA
-0,070495605;22,60600694;-0,000632019;1;207;0,017148151;-0,00931627;1 mA
-0,080566406;22,70671494;-0,000673218;1;208;0,017148151;-0,00931627;1 mA
-0,090637207;22,80742294;-0,000715027;1;209;0,017148151;-0,00931627;1 mA
-0,100708008;22,90813094;-0,000758362;1;210;0,017148151;-0,00931627;1 mA
-0,110778809;23,00883894;-0,000802307;1;211;0,017148151;-0,00931627;1 mA
-0,120849609;23,10954694;-0,000847778;1;212;0,017148151;-0,00931627;1 mA
-0,13092041;23,21025494;-0,00089386;1;213;0,017148151;-0,00931627;1 mA
-0,140991211;23,31096294;-0,000940857;1;214;0,017148151;-0,00931627;1 mA
-0,151062012;23,41167094;-0,00098877;1;215;0,017148151;-0,00931627;1 mA
-0,161132813;23,51237894;-0,001037598;1;216;0,017148151;-0,00931627;1 mA
-0,171203613;23,61308694;-0,001086731;1;217;0,017148151;-0,00931627;1 mA
-0,181274414;23,71379494;-0,001136475;1;218;0,017148151;-0,00931627;1 mA
-0,191345215;23,81450294;-0,001186829;1;219;0,017148151;-0,00931627;1 mA
-0,201416016;23,91521094;-0,001237488;1;220;0,017148151;-0,00931627;1 mA
-0,211486816;24,01591894;-0,001288452;1;221;0,017148151;-0,00931627;1 mA
-0,221557617;24,11662694;-0,001339722;1;222;0,017148151;-0,00931627;1 mA
-0,231628418;24,21733494;-0,001391296;1;223;0,017148151;-0,00931627;1 mA
-0,241699219;24,31804294;-0,001442871;1;224;0,017148151;-0,00931627;1 mA
-0,25177002;24,41875094;-0,001494141;1;225;0,017148151;-0,00931627;1 mA
-0,26184082;24,51945894;-0,00154541;1;226;0,017148151;-0,00931627;1 mA
-0,271911621;24,62016694;-0,001595764;1;227;0,017148151;-0,00931627;1 mA
-0,281982422;24,72087494;-0,001644287;1;228;0,017148151;-0,00931627;1 mA
-0,292053223;24,82158294;-0,001690674;1;229;0,017148151;-0,00931627;1 mA
-0,302124023;24,92229094;-0,001743469;1;230;0,017148151;-0,00931627;1 mA
-0,312194824;25,02299894;-0,001800842;1;231;0,017148151;-0,00931627;1 mA
-0,322265625;25,12370694;-0,001852112;1;232;0,017148151;-0,00931627;1 mA
-0,332336426;25,22441494;-0,001900024;1;233;0,017148151;-0,00931627;1 mA
-0,342407227;25,32512294;-0,001946106;1;234;0,017148151;-0,00931627;1 mA
-0,352478027;25,42583094;-0,001990356;1;235;0,017148151;-0,00931627;1 mA
-0,362548828;25,52653894;-0,002033386;1;236;0,017148151;-0,00931627;1 mA
-0,372619629;25,62724694;-0,00207489;1;237;0,017148151;-0,00931627;1 mA
-0,38269043;25,72795494;-0,002114868;1;238;0,017148151;-0,00931627;1 mA
-0,39276123;25,82866293;-0,00215332;1;239;0,017148151;-0,00931627;1 mA
-0,402832031;25,92937093;-0,002189636;1;240;0,017148151;-0,00931627;1 mA
-0,39276123;26,03007893;-0,002078247;1;241;0,017148151;-0,00931627;1 mA
-0,38269043;26,13078693;-0,001977234;1;242;0,017148151;-0,00931627;1 mA
-0,372619629;26,23149493;-0,00188385;1;243;0,017148151;-0,00931627;1 mA
-0,362548828;26,33220293;-0,001796875;1;244;0,017148151;-0,00931627;1 mA
-0,352478027;26,43291093;-0,001715088;1;245;0,017148151;-0,00931627;1 mA
-0,342407227;26,53361893;-0,001637573;1;246;0,017148151;-0,00931627;1 mA
-0,332336426;26,63432693;-0,001563721;1;247;0,017148151;-0,00931627;1 mA
-0,322265625;26,73503493;-0,00149353;1;248;0,017148151;-0,00931627;1 mA
-0,312194824;26,83574293;-0,001426086;1;249;0,017148151;-0,00931627;1 mA
-0,302124023;26,93645093;-0,001361389;1;250;0,017148151;-0,00931627;1 mA
-0,292053223;27,03715893;-0,001299438;1;251;0,017148151;-0,00931627;1 mA
-0,281982422;27,13786693;-0,001239624;1;252;0,017148151;-0,00931627;1 mA
-0,271911621;27,23857493;-0,001181946;1;253;0,017148151;-0,00931627;1 mA
-0,26184082;27,33928293;-0,001126404;1;254;0,017148151;-0,00931627;1 mA
-0,25177002;27,43999093;-0,001072693;1;255;0,017148151;-0,00931627;1 mA
-0,241699219;27,54069893;-0,001021118;1;256;0,017148151;-0,00931627;1 mA
-0,231628418;27,64140693;-0,000971069;1;257;0,017148151;-0,00931627;1 mA
-0,221557617;27,74211493;-0,000922546;1;258;0,017148151;-0,00931627;1 mA
-0,211486816;27,84282293;-0,000875549;1;259;0,017148151;-0,00931627;1 mA
-0,201416016;27,94353093;-0,000830383;1;260;0,017148151;-0,00931627;1 mA
-0,191345215;28,04423893;-0,000786438;1;261;0,017148151;-0,00931627;1 mA
-0,181274414;28,14494693;-0,000744324;1;262;0,017148151;-0,00931627;1 mA
-0,171203613;28,24565493;-0,00070343;1;263;0,017148151;-0,00931627;1 mA
-0,161132813;28,34636293;-0,000664063;1;264;0,017148151;-0,00931627;1 mA
-0,151062012;28,44707093;-0,00062561;1;265;0,017148151;-0,00931627;1 mA
-0,140991211;28,54777893;-0,000588989;1;266;0,017148151;-0,00931627;1 mA
-0,13092041;28,64848693;-0,000553284;1;267;0,017148151;-0,00931627;1 mA
-0,120849609;28,74919493;-0,000519409;1;268;0,017148151;-0,00931627;1 mA
-0,110778809;28,84990293;-0,000486725;1;269;0,017148151;-0,00931627;1 mA
-0,100708008;28,95061093;-0,000455383;1;270;0,017148151;-0,00931627;1 mA
-0,090637207;29,05131893;-0,000425201;1;271;0,017148151;-0,00931627;1 mA
-0,080566406;29,15202693;-0,000396515;1;272;0,017148151;-0,00931627;1 mA
-0,070495605;29,25273493;-0,000368835;1;273;0,017148151;-0,00931627;1 mA
-0,060424805;29,35344293;-0,000342529;1;274;0,017148151;-0,00931627;1 mA
-0,050354004;29,45415093;-0,000317352;1;275;0,017148151;-0,00931627;1 mA
-0,040283203;29,55485893;-0,000293518;1;276;0,017148151;-0,00931627;1 mA
-0,030212402;29,65556693;-0,000270752;1;277;0,017148151;-0,00931627;1 mA
-0,020141602;29,75627492;-0,000249237;1;278;0,017148151;-0,00931627;1 mA
-0,010070801;29,85698292;-0,000228729;1;279;0,017148151;-0,00931627;1 mA
0;29,95769092;-0,00020932;1;280;0,017148151;-0,00931627;1 mA
